#Amplitudenmessung
#A/u_0 & f / Hz
1.000  10
1.000  20
1.000  30
0.982  40
0.982  50
0.964  60
0.946  70
0.929  80
0.929  90
0.893  100
0.732  200
0.589  300
0.482  500
0.393  500
0.339  600
0.301  700
0.268  800
0.250  900
0.214  1000
0.100  2000
0.066  3000
0.050 4000
0.040 5000
0.034 6000
0.028 7000
0.025 8000
0.022 9000
0.020 10000

#-0.803
#-0.803
#-0.803
#-0.821
#-0.821
#-0.840
#-0.858
#-0.877
#-0.877
#-0.916
#-1.115
#-1.332
#-1.532
#-1.737
#-1.884
#-2.002
#-2.120
#-2.189
#-2.343
#-3.106
#-3.520
#-3.799
#-4.017
#-4.186
#-4.358
#-4.492
#-4.605
#-4.711
