#Amplitudenmessung
#A/u_0 / v & f / Hz
0.448  10
0.448  20
0.448  30
0.440  40
0.440  50
0.432  60
0.424  70
0.416  80
0.416  90
0.400  100
0.328  200
0.264  300
0.216  500
0.176  500
0.152  600
0.135  700
0.120  800
0.112  900
0.096  1000
0.0448 2000
0.0296 3000
0.0224 4000
0.0180 5000
0.0152 6000
0.0128 7000
0.0112 8000
0.0100 9000
0.0090 10000

#-0.803
#-0.803
#-0.803
#-0.821
#-0.821
#-0.840
#-0.858
#-0.877
#-0.877
#-0.916
#-1.115
#-1.332
#-1.532
#-1.737
#-1.884
#-2.002
#-2.120
#-2.189
#-2.343
#-3.106
#-3.520
#-3.799
#-4.017
#-4.186
#-4.358
#-4.492
#-4.605
#-4.711
