#Amplitudenmessung
#A / v & f / Hz
4.48  10
4.48  20
4.48  30
4.40  40
4.40  50
4.32  60
4.24  70
4.16  80
4.16  90
4.00  100
3.28  200
2.64  300
2.16  400
1.76  500
1.52  600
1.35  700
1.20  800
1.12  900
0.96  1000
0.448 2000
0.296 3000
0.224 4000
0.180 5000
0.152 6000
0.128 7000
0.112 8000
0.100 9000
0.090 10000
